#Energy, xr0, xi0, xrh, xih, delta, QB
   7.00000000000000000000, -0.20044E-04, 0.60292E-06, 0.10241E-04, 0.55726E-06, 0.10022E-04, 40.713
   7.10000000000000000000, -0.19479E-04, 0.57050E-06, 0.99502E-05, 0.52737E-06, 0.97393E-05, 40.022
   7.20000000000000000000, -0.18937E-04, 0.54021E-06, 0.96714E-05, 0.49944E-06, 0.94683E-05, 39.357
   7.30000000000000000000, -0.18417E-04, 0.51191E-06, 0.94040E-05, 0.47333E-06, 0.92084E-05, 38.717
   7.40000000000000000000, -0.17918E-04, 0.48543E-06, 0.91475E-05, 0.44890E-06, 0.89591E-05, 38.099
   7.50000000000000000000, -0.17439E-04, 0.46063E-06, 0.89013E-05, 0.42602E-06, 0.87197E-05, 37.502
   7.60000000000000000000, -0.16980E-04, 0.43739E-06, 0.86649E-05, 0.40458E-06, 0.84898E-05, 36.926
   7.70000000000000000000, -0.16538E-04, 0.41559E-06, 0.84378E-05, 0.38446E-06, 0.82688E-05, 36.368
   7.80000000000000000000, -0.16113E-04, 0.39513E-06, 0.82194E-05, 0.36558E-06, 0.80563E-05, 35.829
   7.90000000000000000000, -0.15704E-04, 0.37591E-06, 0.80094E-05, 0.34783E-06, 0.78519E-05, 35.307
   8.00000000000000000000, -0.15310E-04, 0.35784E-06, 0.78073E-05, 0.33115E-06, 0.76552E-05, 34.802
   8.10000000000000000000, -0.14931E-04, 0.34083E-06, 0.76127E-05, 0.31545E-06, 0.74657E-05, 34.312
   8.20000000000000000000, -0.14566E-04, 0.32482E-06, 0.74253E-05, 0.30067E-06, 0.72832E-05, 33.836
   8.30000000000000000000, -0.14215E-04, 0.30974E-06, 0.72447E-05, 0.28674E-06, 0.71073E-05, 33.375
   8.40000000000000000000, -0.13875E-04, 0.29552E-06, 0.70706E-05, 0.27360E-06, 0.69377E-05, 32.926
   8.50000000000000000000, -0.13548E-04, 0.28210E-06, 0.69027E-05, 0.26121E-06, 0.67740E-05, 32.491
   8.60000000000000000000, -0.13232E-04, 0.26943E-06, 0.67406E-05, 0.24950E-06, 0.66161E-05, 32.068
   8.70000000000000000000, -0.12927E-04, 0.25746E-06, 0.65842E-05, 0.23844E-06, 0.64637E-05, 31.656
   8.80000000000000000000, -0.12633E-04, 0.24615E-06, 0.64332E-05, 0.22799E-06, 0.63164E-05, 31.255
   8.90000000000000000000, -0.12348E-04, 0.23545E-06, 0.62873E-05, 0.21810E-06, 0.61741E-05, 30.865
   9.00000000000000000000, -0.12073E-04, 0.22532E-06, 0.61463E-05, 0.20874E-06, 0.60366E-05, 30.486
   9.10000000000000000000, -0.11807E-04, 0.21573E-06, 0.60100E-05, 0.19987E-06, 0.59036E-05, 30.116
   9.20000000000000000000, -0.11550E-04, 0.20664E-06, 0.58781E-05, 0.19147E-06, 0.57749E-05, 29.755
   9.30000000000000000000, -0.11301E-04, 0.19802E-06, 0.57506E-05, 0.18350E-06, 0.56504E-05, 29.404
   9.40000000000000000000, -0.11060E-04, 0.18985E-06, 0.56271E-05, 0.17594E-06, 0.55299E-05, 29.061
   9.50000000000000000000, -0.10826E-04, 0.18209E-06, 0.55076E-05, 0.16877E-06, 0.54132E-05, 28.726
   9.60000000000000000000, -0.10600E-04, 0.17472E-06, 0.53918E-05, 0.16195E-06, 0.53001E-05, 28.399
   9.70000000000000000000, -0.10381E-04, 0.16772E-06, 0.52797E-05, 0.15548E-06, 0.51906E-05, 28.081
   9.80000000000000000000, -0.10169E-04, 0.16106E-06, 0.51710E-05, 0.14932E-06, 0.50844E-05, 27.769
   9.90000000000000000000, -0.99629E-05, 0.15473E-06, 0.50656E-05, 0.14347E-06, 0.49814E-05, 27.465
   10.00000000000000000000, -0.97631E-05, 0.14871E-06, 0.49634E-05, 0.13789E-06, 0.48816E-05, 27.167
   10.10000000000000000000, -0.95693E-05, 0.14298E-06, 0.48643E-05, 0.13259E-06, 0.47847E-05, 26.877
   10.20000000000000000000, -0.93812E-05, 0.13751E-06, 0.47681E-05, 0.12753E-06, 0.46906E-05, 26.592
   10.30000000000000000000, -0.91986E-05, 0.13231E-06, 0.46747E-05, 0.12272E-06, 0.45993E-05, 26.314
   10.40000000000000000000, -0.90213E-05, 0.12735E-06, 0.45840E-05, 0.11812E-06, 0.45107E-05, 26.042
   10.50000000000000000000, -0.88491E-05, 0.12261E-06, 0.44960E-05, 0.11374E-06, 0.44245E-05, 25.776
   10.60000000000000000000, -0.86817E-05, 0.11810E-06, 0.44104E-05, 0.10956E-06, 0.43408E-05, 25.515
   10.70000000000000000000, -0.85190E-05, 0.11379E-06, 0.43273E-05, 0.10557E-06, 0.42595E-05, 25.260
   10.80000000000000000000, -0.83609E-05, 0.10967E-06, 0.42465E-05, 0.10176E-06, 0.41804E-05, 25.010
   10.90000000000000000000, -0.82071E-05, 0.10574E-06, 0.41679E-05, 0.98119E-07, 0.41036E-05, 24.765
   11.00000000000000000000, -0.80575E-05, 0.10198E-06, 0.40915E-05, 0.94638E-07, 0.40288E-05, 24.525
   11.10000000000000000000, -0.79120E-05, 0.98385E-07, 0.40172E-05, 0.91309E-07, 0.39560E-05, 24.289
   11.20000000000000000000, -0.77704E-05, 0.94947E-07, 0.39449E-05, 0.88125E-07, 0.38852E-05, 24.059
   11.30000000000000000000, -0.76326E-05, 0.91658E-07, 0.38745E-05, 0.85078E-07, 0.38163E-05, 23.832
   11.40000000000000000000, -0.74984E-05, 0.88508E-07, 0.38060E-05, 0.82160E-07, 0.37492E-05, 23.611
   11.50000000000000000000, -0.73677E-05, 0.85493E-07, 0.37393E-05, 0.79366E-07, 0.36838E-05, 23.393
   11.60000000000000000000, -0.72403E-05, 0.82604E-07, 0.36743E-05, 0.76690E-07, 0.36202E-05, 23.180
   11.70000000000000000000, -0.71163E-05, 0.79835E-07, 0.36110E-05, 0.74124E-07, 0.35581E-05, 22.970
   11.80000000000000000000, -0.69954E-05, 0.77181E-07, 0.35493E-05, 0.71665E-07, 0.34977E-05, 22.764
   11.90000000000000000000, -0.68776E-05, 0.74636E-07, 0.34892E-05, 0.69306E-07, 0.34388E-05, 22.562
   12.00000000000000000000, -0.67627E-05, 0.72194E-07, 0.34306E-05, 0.67043E-07, 0.33814E-05, 22.364
   12.10000000000000000000, -0.66507E-05, 0.69851E-07, 0.33735E-05, 0.64872E-07, 0.33253E-05, 22.170
   12.20000000000000000000, -0.65414E-05, 0.67602E-07, 0.33178E-05, 0.62787E-07, 0.32707E-05, 21.978
   12.30000000000000000000, -0.64348E-05, 0.65442E-07, 0.32634E-05, 0.60785E-07, 0.32174E-05, 21.790
   12.40000000000000000000, -0.63308E-05, 0.63367E-07, 0.32104E-05, 0.58861E-07, 0.31654E-05, 21.606
   12.50000000000000000000, -0.62293E-05, 0.61374E-07, 0.31587E-05, 0.57013E-07, 0.31147E-05, 21.424
   12.60000000000000000000, -0.61302E-05, 0.59458E-07, 0.31082E-05, 0.55236E-07, 0.30651E-05, 21.246
   12.70000000000000000000, -0.60335E-05, 0.57615E-07, 0.30589E-05, 0.53528E-07, 0.30167E-05, 21.071
   12.80000000000000000000, -0.59390E-05, 0.55844E-07, 0.30107E-05, 0.51885E-07, 0.29695E-05, 20.898
   12.90000000000000000000, -0.58467E-05, 0.54139E-07, 0.29637E-05, 0.50304E-07, 0.29234E-05, 20.729
   13.00000000000000000000, -0.57566E-05, 0.52499E-07, 0.29178E-05, 0.48783E-07, 0.28783E-05, 20.562
   13.10000000000000000000, -0.56685E-05, 0.50920E-07, 0.28730E-05, 0.47318E-07, 0.28343E-05, 20.398
   13.20000000000000000000, -0.55825E-05, 0.49400E-07, 0.28291E-05, 0.45908E-07, 0.27912E-05, 20.237
   13.30000000000000000000, -0.54984E-05, 0.47935E-07, 0.27863E-05, 0.44550E-07, 0.27492E-05, 20.078
   13.40000000000000000000, -0.54161E-05, 0.46525E-07, 0.27444E-05, 0.43241E-07, 0.27081E-05, 19.922
   13.50000000000000000000, -0.53358E-05, 0.45165E-07, 0.27035E-05, 0.41980E-07, 0.26679E-05, 19.768
   13.60000000000000000000, -0.52571E-05, 0.43855E-07, 0.26635E-05, 0.40764E-07, 0.26286E-05, 19.617
   13.70000000000000000000, -0.51802E-05, 0.42591E-07, 0.26243E-05, 0.39592E-07, 0.25901E-05, 19.468
   13.80000000000000000000, -0.51050E-05, 0.41373E-07, 0.25860E-05, 0.38461E-07, 0.25525E-05, 19.321
   13.90000000000000000000, -0.50314E-05, 0.40197E-07, 0.25486E-05, 0.37370E-07, 0.25157E-05, 19.177
   14.00000000000000000000, -0.49594E-05, 0.39063E-07, 0.25119E-05, 0.36318E-07, 0.24797E-05, 19.034
